lambda_nm,vprime,
650,0.1418991685,
649.9000244,0.1412061006,
649.7999878,0.1423437446,
649.7000122,0.1431106478,
649.5999756,0.143066138,
649.5,0.1365427226,
649.4000244,0.1331348419,
649.2999878,0.1338776499,
649.2000122,0.1339591444,
649.0999756,0.1339944601,
649,0.1345971227,
648.9000244,0.1347257048,
648.7999878,0.1347597837,
648.7000122,0.1349949241,
648.5999756,0.1339671165,
648.5,0.1340863407,
648.4000244,0.134245351,
648.2999878,0.1346853971,
648.2000122,0.1349289566,
648.0999756,0.1347889006,
648,0.1353263557,
647.9000244,0.1353706867,
647.7999878,0.1355006993,
647.7000122,0.1362176687,
647.5999756,0.1363169998,
647.5,0.1370671242,
647.4000244,0.1376660317,
647.2999878,0.1380648464,
647.2000122,0.1381296664,
647.0999756,0.1386143863,
647,0.1396563053,
646.9000244,0.1402223408,
646.7999878,0.1397659332,
646.7000122,0.1399205923,
646.5999756,0.1405731887,
646.5,0.1409040987,
646.4000244,0.1424797475,
646.2999878,0.1423195601,
646.2000122,0.1429924816,
646.0999756,0.1437600255,
646,0.1442315876,
645.9000244,0.1454634219,
645.7999878,0.1459303498,
645.7000122,0.145224005,
645.5999756,0.139280349,
645.5,0.1384517699,
645.4000244,0.138862744,
645.2999878,0.1397572458,
645.2000122,0.1400660574,
645.0999756,0.1405798793,
645,0.1413976997,
644.9000244,0.14204368,
644.7999878,0.142351076,
644.7000122,0.1366400719,
644.5999756,0.1321208626,
644.5,0.1319743842,
644.4000244,0.1326552927,
644.2999878,0.1327321678,
644.2000122,0.1335797608,
644.0999756,0.1334165335,
644,0.1339431107,
643.9000244,0.1336386353,
643.7999878,0.1341113001,
643.7000122,0.1345791668,
643.5999756,0.1351691782,
643.5,0.1347125471,
643.4000244,0.1352849603,
643.2999878,0.1349405348,
643.2000122,0.1357953846,
643.0999756,0.1367866844,
643,0.1372454613,
642.9000244,0.1377734542,
642.7999878,0.1379251629,
642.7000122,0.1383288503,
642.5999756,0.1391372532,
642.5,0.1393188834,
642.4000244,0.1405800581,
642.2999878,0.1416223794,
642.2000122,0.1424462199,
642.0999756,0.1428286135,
642,0.1437050998,
641.9000244,0.1439292133,
641.7999878,0.1422840804,
641.7000122,0.1427131891,
641.5999756,0.143566981,
641.5,0.1442954838,
641.4000244,0.1448627263,
641.2999878,0.1465010643,
641.2000122,0.1475477368,
641.0999756,0.1480430067,
641,0.149834007,
640.9000244,0.1483483762,
640.7999878,0.1397240311,
640.7000122,0.1374981999,
640.5999756,0.1375374645,
640.5,0.1384447217,
640.4000244,0.1393027902,
640.2999878,0.1400202513,
640.2000122,0.1407846957,
640.0999756,0.1386023462,
640,0.133624509,
639.9000244,0.1324788928,
639.7999878,0.13261953,
639.7000122,0.1329497099,
639.5999756,0.1334834695,
639.5,0.1337033212,
639.4000244,0.1341179609,
639.2999878,0.1349535733,
639.2000122,0.1358976364,
639.0999756,0.134822309,
639,0.1356024146,
638.9000244,0.1360656172,
638.7999878,0.1367020905,
638.7000122,0.1369898617,
638.5999756,0.1377893835,
638.5,0.1383258551,
638.4000244,0.1394327134,
638.2999878,0.1396297067,
638.2000122,0.1407193393,
638.0999756,0.1405163407,
638,0.1415787637,
637.9000244,0.1417630613,
637.7999878,0.1432896554,
637.7000122,0.1442646384,
637.5999756,0.1453354508,
637.5,0.1463635862,
637.4000244,0.147146374,
637.2999878,0.1480691433,
637.2000122,0.1499001682,
637.0999756,0.1495854855,
637,0.1459532082,
636.9000244,0.1460373551,
636.7999878,0.1467588544,
636.7000122,0.1478949636,
636.5999756,0.1490721405,
636.5,0.1505569667,
636.4000244,0.1514395773,
636.2999878,0.1523676664,
636.2000122,0.1454036385,
636.0999756,0.1357649565,
636,0.1362238973,
635.9000244,0.1364919245,
635.7999878,0.136920169,
635.7000122,0.137900129,
635.5999756,0.1372192353,
635.5,0.1333849281,
635.4000244,0.1326896846,
635.2999878,0.1333362162,
635.2000122,0.1337446272,
635.0999756,0.1346215159,
635,0.1340544522,
634.9000244,0.1348065883,
634.7999878,0.1350086778,
634.7000122,0.1355219185,
634.5999756,0.1358839273,
634.5,0.1367972791,
634.4000244,0.1374450922,
634.2999878,0.1389377415,
634.2000122,0.138669312,
634.0999756,0.1395231783,
634,0.1408981234,
633.9000244,0.1410051286,
633.7999878,0.1425355524,
633.7000122,0.1434734315,
633.5999756,0.1443491578,
633.5,0.1457191408,
633.4000244,0.1466964632,
633.2999878,0.1473187059,
633.2000122,0.1475338936,
633.0999756,0.1485674977,
633,0.149652198,
632.9000244,0.1509542763,
632.7999878,0.1528092921,
632.7000122,0.1543417424,
632.5999756,0.1551703364,
632.5,0.1570854187,
632.4000244,0.1546719372,
632.2999878,0.1483802497,
632.2000122,0.1479172707,
632.0999756,0.1494046301,
632,0.1503396481,
631.9000244,0.1511206031,
631.7999878,0.1532489657,
631.7000122,0.150330022,
631.5999756,0.1366893649,
631.5,0.1336650103,
631.4000244,0.1337682009,
631.2999878,0.1351085752,
631.2000122,0.1345395744,
631.0999756,0.1333454102,
631,0.1330361664,
630.9000244,0.1332639158,
630.7999878,0.1331928819,
630.7000122,0.1336882412,
630.5999756,0.1344831884,
630.5,0.1344787776,
630.4000244,0.1357099265,
630.2999878,0.1367815733,
630.2000122,0.1379756033,
630.0999756,0.1382900178,
630,0.139105767,
629.9000244,0.1399201006,
629.7999878,0.1410916299,
629.7000122,0.1424317062,
629.5999756,0.1429509968,
629.5,0.1446023732,
629.4000244,0.1452429295,
629.2999878,0.1466288716,
629.2000122,0.1478145868,
629.0999756,0.1491530389,
629,0.1507515907,
628.9000244,0.151854068,
628.7999878,0.1531489938,
628.7000122,0.1550987512,
628.5999756,0.1543497294,
628.5,0.1541481167,
628.4000244,0.1561054438,
628.2999878,0.1579511017,
628.2000122,0.159738183,
628.0999756,0.1612690687,
628,0.1630841196,
627.9000244,0.1645736247,
627.7999878,0.1554328054,
627.7000122,0.1480598003,
627.5999756,0.148778528,
627.5,0.1501071304,
627.4000244,0.151192233,
627.2999878,0.1514687836,
627.2000122,0.1402259767,
627.0999756,0.132803902,
627,0.1330139488,
626.9000244,0.1334979385,
626.7999878,0.1340725273,
626.7000122,0.1331725866,
626.5999756,0.1338792294,
626.5,0.1348521113,
626.4000244,0.1353732944,
626.2999878,0.1363542378,
626.2000122,0.1371088922,
626.0999756,0.1384636313,
626,0.1397290081,
625.9000244,0.1400664598,
625.7999878,0.1408779323,
625.7000122,0.1421422511,
625.5999756,0.1436074078,
625.5,0.144586131,
625.4000244,0.1459150165,
625.2999878,0.1462179124,
625.2000122,0.1479840875,
625.0999756,0.1486418098,
625,0.1509088725,
624.9000244,0.151932776,
624.7999878,0.1538564414,
624.7000122,0.1551439911,
624.5999756,0.1572093517,
624.5,0.158636272,
624.4000244,0.1605857611,
624.2999878,0.1631432921,
624.2000122,0.1639239937,
624.0999756,0.1663141847,
624,0.1630426794,
623.9000244,0.1631612629,
623.7999878,0.1647415459,
623.7000122,0.1670949757,
623.5999756,0.1691608131,
623.5,0.1715242863,
623.4000244,0.1670487672,
623.2999878,0.1497745812,
623.2000122,0.1484832764,
623.0999756,0.1491121799,
623,0.1491912901,
622.9000244,0.1389034539,
622.7999878,0.1336231381,
622.7000122,0.1340567321,
622.5999756,0.133466512,
622.5,0.1343261451,
622.4000244,0.1350634992,
622.2999878,0.1363778412,
622.2000122,0.1370230764,
622.0999756,0.1377804875,
622,0.1391100138,
621.9000244,0.1398823708,
621.7999878,0.1413459778,
621.7000122,0.1417957097,
621.5999756,0.1434253454,
621.5,0.1443255544,
621.4000244,0.1462584436,
621.2999878,0.1475302875,
621.2000122,0.1483315825,
621.0999756,0.1500117481,
621,0.1518424302,
620.9000244,0.1533131897,
620.7999878,0.1551925838,
620.7000122,0.156909436,
620.5999756,0.159150973,
620.5,0.1605568826,
620.4000244,0.1630257964,
620.2999878,0.1651590466,
620.2000122,0.1659498364,
620.0999756,0.1689716876,
620,0.1709869653,
619.9000244,0.1740140915,
619.7999878,0.1760796309,
619.7000122,0.1789633483,
619.5999756,0.1769361645,
619.5,0.1702183336,
619.4000244,0.1729763299,
619.2999878,0.1746698767,
619.2000122,0.1775581986,
619.0999756,0.1706626266,
619,0.1483798176,
618.9000244,0.1465465426,
618.7999878,0.1435593069,
618.7000122,0.1347982883,
618.5999756,0.133850798,
618.5,0.1354769021,
618.4000244,0.1355644017,
618.2999878,0.1378558278,
618.2000122,0.1380401254,
618.0999756,0.1389322579,
618,0.1395065188,
617.9000244,0.1412222534,
617.7999878,0.1429050118,
617.7000122,0.1435710937,
617.5999756,0.1452340931,
617.5,0.1464847773,
617.4000244,0.1479571909,
617.2999878,0.149973318,
617.2000122,0.1512429416,
617.0999756,0.1530986577,
617,0.1547049433,
616.9000244,0.156624496,
616.7999878,0.1590941399,
616.7000122,0.1601862907,
616.5999756,0.1625173539,
616.5,0.1647242606,
616.4000244,0.166613251,
616.2999878,0.1694187522,
616.2000122,0.1719395965,
616.0999756,0.1747699678,
616,0.1776735634,
615.9000244,0.1801094711,
615.7999878,0.1806408614,
615.7000122,0.1840453446,
615.5999756,0.1863459498,
615.5,0.1890732646,
615.4000244,0.1929110587,
615.2999878,0.1878472567,
615.2000122,0.1766412109,
615.0999756,0.1781059355,
615,0.1794047803,
614.9000244,0.1619995236,
614.7999878,0.1428705156,
614.7000122,0.1365674585,
614.5999756,0.1358606815,
614.5,0.1367876083,
614.4000244,0.1377363056,
614.2999878,0.138587743,
614.2000122,0.1400376111,
614.0999756,0.140811801,
614,0.1423722655,
613.9000244,0.1441414207,
613.7999878,0.1453866661,
613.7000122,0.1467965543,
613.5999756,0.1483986825,
613.5,0.1505818516,
613.4000244,0.1516721249,
613.2999878,0.1537097394,
613.2000122,0.1556161493,
613.0999756,0.1572637409,
613,0.1587926298,
612.9000244,0.162033245,
612.7999878,0.1627452523,
612.7000122,0.1661099792,
612.5999756,0.168533057,
612.5,0.171570465,
612.4000244,0.1739275753,
612.2999878,0.1765482277,
612.2000122,0.1800313741,
612.0999756,0.1821494997,
612,0.1859875023,
611.9000244,0.1885973215,
611.7999878,0.1922369599,
611.7000122,0.1962035,
611.5999756,0.197793901,
611.5,0.1981984377,
611.4000244,0.2007121295,
611.2999878,0.2050226629,
611.2000122,0.207980603,
611.0999756,0.195350036,
611,0.1804207861,
610.9000244,0.1734431684,
610.7999878,0.1439669579,
610.7000122,0.1376427263,
610.5999756,0.1387002319,
610.5,0.1395084709,
610.4000244,0.1409690231,
610.2999878,0.1421442181,
610.2000122,0.1432603896,
610.0999756,0.1441604048,
610,0.1462317556,
609.9000244,0.1480102837,
609.7999878,0.1497263759,
609.7000122,0.1511316299,
609.5999756,0.1532991529,
609.5,0.1545317769,
609.4000244,0.1574814618,
609.2999878,0.1593913436,
609.2000122,0.1615122706,
609.0999756,0.1634773761,
609,0.1663893908,
608.9000244,0.1680538505,
608.7999878,0.1710063815,
608.7000122,0.1735731661,
608.5999756,0.1764725596,
608.5,0.1787522882,
608.4000244,0.1821139902,
608.2999878,0.185135141,
608.2000122,0.1882779747,
608.0999756,0.1926676631,
608,0.1956673265,
607.9000244,0.1998875439,
607.7999878,0.2040393502,
607.7000122,0.2081402987,
607.5999756,0.2118028253,
607.5,0.2169750631,
607.4000244,0.218689099,
607.2999878,0.2140420824,
607.2000122,0.2156379223,
607.0999756,0.2163052261,
607,0.1872901767,
606.9000244,0.1556509435,
606.7999878,0.1407393068,
606.7000122,0.1411828101,
606.5999756,0.1431157291,
606.5,0.1443411857,
606.4000244,0.1451735944,
606.2999878,0.1464472413,
606.2000122,0.1485582441,
606.0999756,0.1497899592,
606,0.151157707,
605.9000244,0.1532586515,
605.7999878,0.1547602415,
605.7000122,0.1575800478,
605.5999756,0.1599507928,
605.5,0.1614369154,
605.4000244,0.1643146425,
605.2999878,0.1669232249,
605.2000122,0.1695754081,
605.0999756,0.1720389128,
605,0.1746314764,
604.9000244,0.1780127436,
604.7999878,0.181268692,
604.7000122,0.1832526773,
604.5999756,0.1864061058,
604.5,0.1906286776,
604.4000244,0.1941694766,
604.2999878,0.1974233836,
604.2000122,0.2021046877,
604.0999756,0.2066116333,
604,0.210553661,
603.9000244,0.2154828906,
603.7999878,0.2200956494,
603.7000122,0.2222972214,
603.5999756,0.2262805104,
603.5,0.2311560363,
603.4000244,0.2363189906,
603.2999878,0.2364262789,
603.2000122,0.228669554,
603.0999756,0.2033361644,
603,0.1496298462,
602.9000244,0.1445307732,
602.7999878,0.1448304206,
602.7000122,0.1474492848,
602.5999756,0.1486987472,
602.5,0.1502894908,
602.4000244,0.1518485993,
602.2999878,0.1540014744,
602.2000122,0.1554463506,
602.0999756,0.157741338,
602,0.1600043625,
601.9000244,0.1620869339,
601.7999878,0.1646137834,
601.7000122,0.1674868912,
601.5999756,0.1702323258,
601.5,0.1728135198,
601.4000244,0.1757617891,
601.2999878,0.1789017916,
601.2000122,0.182525143,
601.0999756,0.1851759404,
601,0.1880745143,
600.9000244,0.1923382133,
600.7999878,0.1954701245,
600.7000122,0.1988655627,
600.5999756,0.2029992193,
600.5,0.2073215693,
600.4000244,0.2112957984,
600.2999878,0.2151653618,
600.2000122,0.2200904042,
600.0999756,0.2252413183,
600,0.2301054448,
599.9000244,0.2358878255,
599.7999878,0.2408124655,
599.7000122,0.2462082803,
599.5999756,0.2515513003,
599.5,0.2555886507,
599.4000244,0.2544048131,
599.2999878,0.2214494944,
599.2000122,0.1642004997,
599.0999756,0.1484756619,
599,0.1501333117,
598.9000244,0.1517480016,
598.7999878,0.1534325778,
598.7000122,0.1557181478,
598.5999756,0.1576008797,
598.5,0.1601366103,
598.4000244,0.1618159413,
598.2999878,0.1642266065,
598.2000122,0.1668194383,
598.0999756,0.1703530103,
598,0.1723387986,
597.9000244,0.17496562,
597.7999878,0.1777811795,
597.7000122,0.1799248904,
597.5999756,0.1833444685,
597.5,0.1859407127,
597.4000244,0.1900585145,
597.2999878,0.1948599964,
597.2000122,0.19871746,
597.0999756,0.2030034363,
597,0.206158489,
596.9000244,0.2082550973,
596.7999878,0.2120970935,
596.7000122,0.2189558446,
596.5999756,0.2231796682,
596.5,0.2283538133,
596.4000244,0.2351216227,
596.2999878,0.2397477627,
596.2000122,0.2455565929,
596.0999756,0.2505256236,
596,0.2578292787,
595.9000244,0.2643536031,
595.7999878,0.2659986615,
595.7000122,0.2623448372,
595.5999756,0.2617883682,
595.5,0.2109646201,
595.4000244,0.1584040374,
595.2999878,0.1563138664,
595.2000122,0.1582559496,
595.0999756,0.1600597501,
595,0.1621438116,
594.9000244,0.1643724591,
594.7999878,0.1663909853,
594.7000122,0.1682896316,
594.5999756,0.1708481461,
594.5,0.1738262922,
594.4000244,0.1762251556,
594.2999878,0.1796459407,
594.2000122,0.1821328849,
594.0999756,0.1852109581,
594,0.188919425,
593.9000244,0.1919680536,
593.7999878,0.1969176382,
593.7000122,0.2006952465,
593.5999756,0.204774797,
593.5,0.2088882923,
593.4000244,0.2145436704,
593.2999878,0.2184064686,
593.2000122,0.2226439863,
593.0999756,0.2275568694,
593,0.2300321907,
592.9000244,0.235372439,
592.7999878,0.2412584722,
592.7000122,0.248291865,
592.5999756,0.2535426021,
592.5,0.2589840591,
592.4000244,0.2680341303,
592.2999878,0.2713247538,
592.2000122,0.2744416296,
592.0999756,0.2811906636,
592,0.2876870632,
591.9000244,0.247011736,
591.7999878,0.2174282819,
591.7000122,0.1727301627,
591.5999756,0.163307488,
591.5,0.1652347893,
591.4000244,0.1679338515,
591.2999878,0.1705601811,
591.2000122,0.1737151295,
591.0999756,0.1754920185,
591,0.1788544208,
590.9000244,0.1802898198,
590.7999878,0.1846985072,
590.7000122,0.1859585345,
590.5999756,0.1915127337,
590.5,0.1944741011,
590.4000244,0.1994554549,
590.2999878,0.2032727897,
590.2000122,0.207720682,
590.0999756,0.2123715878,
590,0.2151528299,
589.9000244,0.21937792,
589.7999878,0.2236634642,
589.7000122,0.2310648113,
589.5999756,0.2323860526,
589.5,0.2352109849,
589.4000244,0.2392518818,
589.2999878,0.2480473667,
589.2000122,0.2542722821,
589.0999756,0.2596341372,
589,0.2684186101,
588.9000244,0.273548454,
588.7999878,0.2794052064,
588.7000122,0.2872982025,
588.5999756,0.2949864566,
588.5,0.3023865819,
588.4000244,0.2738506496,
588.2999878,0.2446022183,
588.2000122,0.2484005094,
588.0999756,0.2184907943,
588,0.1769226342,
587.9000244,0.1750960797,
587.7999878,0.1771427691,
587.7000122,0.1795039773,
587.5999756,0.1826503575,
587.5,0.1848192811,
587.4000244,0.1886934042,
587.2999878,0.1905940771,
587.2000122,0.1950888783,
587.0999756,0.1982179284,
587,0.2036460936,
586.9000244,0.2073636651,
586.7999878,0.2125356942,
586.7000122,0.2150550485,
586.5999756,0.2179806978,
586.5,0.2237772048,
586.4000244,0.2251137197,
586.2999878,0.2303578705,
586.2000122,0.2333052605,
586.0999756,0.2408713251,
586,0.2461991608,
585.9000244,0.2530891597,
585.7999878,0.2601079345,
585.7000122,0.2633123398,
585.5999756,0.2711062729,
585.5,0.2774339914,
585.4000244,0.2889913023,
585.2999878,0.296233505,
585.2000122,0.3039811254,
585.0999756,0.3130488396,
585,0.2959222496,
584.9000244,0.2653905749,
584.7999878,0.2689392269,
584.7000122,0.2774611413,
584.5999756,0.2620473802,
584.5,0.2053169757,
584.4000244,0.1978076547,
584.2999878,0.187094152,
584.2000122,0.1874108762,
584.0999756,0.1909531504,
584,0.1934799254,
583.9000244,0.1972917914,
583.7999878,0.2021282762,
583.7000122,0.2061983496,
583.5999756,0.2099383175,
583.5,0.2143701017,
583.4000244,0.2159540355,
583.2999878,0.2173975408,
583.2000122,0.2220028639,
583.0999756,0.2279170156,
583,0.2316567004,
582.9000244,0.2379106432,
582.7999878,0.2438963652,
582.7000122,0.2485215962,
582.5999756,0.257485956,
582.5,0.2627509832,
582.4000244,0.2694968879,
582.2999878,0.276891917,
582.2000122,0.2848218381,
582.0999756,0.2916767895,
582,0.3015473485,
581.9000244,0.3074503839,
581.7999878,0.3174124062,
581.7000122,0.3128616214,
581.5999756,0.2826170623,
581.5,0.2868458927,
581.4000244,0.2926806509,
581.2999878,0.3032692075,
581.2000122,0.3053075671,
581.0999756,0.2412896454,
581,0.2152989954,
580.9000244,0.2196796983,
580.7999878,0.2112816125,
580.7000122,0.1999752074,
580.5999756,0.2013642043,
580.5,0.2071966678,
580.4000244,0.2069805712,
580.2999878,0.2096903026,
580.2000122,0.2156121135,
580.0999756,0.2181677371,
580,0.225333944,
579.9000244,0.2274951637,
579.7999878,0.2361840755,
579.7000122,0.2381948382,
579.5999756,0.248951897,
579.5,0.2525129914,
579.4000244,0.2593618631,
579.2999878,0.2627671063,
579.2000122,0.2700159848,
579.0999756,0.2808946967,
579,0.2844991088,
578.9000244,0.2945171297,
578.7999878,0.3012644351,
578.7000122,0.3094805181,
578.5999756,0.3186940849,
578.5,0.3201975822,
578.4000244,0.2963423729,
578.2999878,0.3025920391,
578.2000122,0.3085990846,
578.0999756,0.3179032505,
578,0.3262513578,
577.9000244,0.3350324631,
577.7999878,0.2914498746,
577.7000122,0.2323406637,
577.5999756,0.2353999913,
577.5,0.2365500629,
577.4000244,0.2383167446,
577.2999878,0.2160917968,
577.2000122,0.2111972868,
577.0999756,0.21561113,
577,0.2193113118,
576.9000244,0.2242595255,
576.7999878,0.2303546518,
576.7000122,0.2373361439,
576.5999756,0.2411173284,
576.5,0.2470499575,
576.4000244,0.2526982725,
576.2999878,0.2563977242,
576.2000122,0.2625112832,
576.0999756,0.2680506706,
576,0.2754639983,
575.9000244,0.2838284075,
575.7999878,0.2911248207,
575.7000122,0.3007588387,
575.5999756,0.3069091737,
575.5,0.3184989989,
575.4000244,0.3196070194,
575.2999878,0.3066236675,
575.2000122,0.3111392558,
575.0999756,0.3191786408,
575,0.3266658187,
574.9000244,0.3391056359,
574.7999878,0.3453028202,
574.7000122,0.3577530086,
574.5999756,0.3266019523,
574.5,0.2531421781,
574.4000244,0.2479422987,
574.2999878,0.2558625042,
574.2000122,0.2624542117,
574.0999756,0.2663781047,
574,0.2424193919,
573.9000244,0.2259263843,
573.7999878,0.2288769931,
573.7000122,0.2356342226,
573.5999756,0.2386983037,
573.5,0.2477989644,
573.4000244,0.2449350953,
573.2999878,0.2508445382,
573.2000122,0.2579723597,
573.0999756,0.2640130222,
573,0.2727672756,
572.9000244,0.2778209746,
572.7999878,0.2857582569,
572.7000122,0.2936698496,
572.5999756,0.301022917,
572.5,0.3083841801,
572.4000244,0.3170182109,
572.2999878,0.3088224232,
572.2000122,0.3170008659,
572.0999756,0.3219372928,
572,0.3317385018,
571.9000244,0.3448395729,
571.7999878,0.3538195491,
571.7000122,0.3627882302,
571.5999756,0.3770810664,
571.5,0.3596855998,
571.4000244,0.2760871053,
571.2999878,0.2658382058,
571.2000122,0.273024559,
571.0999756,0.2773796022,
571,0.2866258621,
570.9000244,0.2930408716,
570.7999878,0.2847423255,
570.7000122,0.2437445223,
570.5999756,0.2369301468,
570.5,0.2410224527,
570.4000244,0.2447665036,
570.2999878,0.2548518479,
570.2000122,0.2573250234,
570.0999756,0.2667648196,
570,0.2685007453,
569.9000244,0.2741306126,
569.7999878,0.2822644413,
569.7000122,0.2893574536,
569.5999756,0.2994965911,
569.5,0.3032329082,
569.4000244,0.3071711361,
569.2999878,0.309663713,
569.2000122,0.3201580048,
569.0999756,0.326456517,
569,0.3414906263,
568.9000244,0.3469497561,
568.7999878,0.3603231907,
568.7000122,0.3674580455,
568.5999756,0.3826350272,
568.5,0.3839675784,
568.4000244,0.3108544946,
568.2999878,0.2775271237,
568.2000122,0.2841769755,
568.0999756,0.2913224697,
568,0.2985553145,
567.9000244,0.2995307446,
567.7999878,0.3084607422,
567.7000122,0.309487313,
567.5999756,0.2618489265,
567.5,0.2420007586,
567.4000244,0.2474384904,
567.2999878,0.2545934319,
567.2000122,0.2586719394,
567.0999756,0.2664050162,
567,0.2728721499,
566.9000244,0.2769618928,
566.7999878,0.2862081826,
566.7000122,0.2961578369,
566.5999756,0.2988967597,
566.5,0.3050282896,
566.4000244,0.312443465,
566.2999878,0.3246416152,
566.2000122,0.3301225007,
566.0999756,0.3414127231,
566,0.3512379527,
565.9000244,0.3608648181,
565.7999878,0.371784538,
565.7000122,0.385966152,
565.5999756,0.3955276906,
565.5,0.3666794896,
565.4000244,0.2934579551,
565.2999878,0.2883142829,
565.2000122,0.2945552766,
565.0999756,0.3042898476,
565,0.3107380867,
564.9000244,0.3195689917,
564.7999878,0.3275976777,
564.7000122,0.3372170329,
564.5999756,0.3197950423,
564.5,0.2549554706,
564.4000244,0.259670943,
564.2999878,0.2590664029,
564.2000122,0.2682702839,
564.0999756,0.2740931809,
564,0.2784532309,
563.9000244,0.2868492305,
563.7999878,0.2936348021,
563.7000122,0.3021751642,
563.5999756,0.3146114945,
563.5,0.3240658045,
563.4000244,0.3271195292,
563.2999878,0.3372818232,
563.2000122,0.3445290029,
563.0999756,0.3582338393,
563,0.3718079925,
562.9000244,0.3788767755,
562.7999878,0.3893027008,
562.7000122,0.3906945884,
562.5999756,0.3229152858,
562.5,0.2979840338,
562.4000244,0.302985549,
562.2999878,0.3098891675,
562.2000122,0.3203185499,
562.0999756,0.3289895952,
562,0.3345730305,
561.9000244,0.3476991057,
561.7999878,0.3620915711,
561.7000122,0.3608261049,
561.5999756,0.3138972521,
561.5,0.2647500634,
561.4000244,0.2662514746,
561.2999878,0.2786930799,
561.2000122,0.2795897126,
561.0999756,0.2931521833,
561,0.2980106175,
560.9000244,0.3031352758,
560.7999878,0.3162299395,
560.7000122,0.3200212121,
560.5999756,0.3298932612,
560.5,0.3420764804,
560.4000244,0.3520228565,
560.2999878,0.3498498201,
560.2000122,0.3641634881,
560.0999756,0.3734973371,
560,0.3856385946,
559.9000244,0.3665993512,
559.7999878,0.3102114797,
559.7000122,0.3051194847,
559.5999756,0.316704452,
559.5,0.3202137053,
559.4000244,0.3312527239,
559.2999878,0.3423688412,
559.2000122,0.3546371758,
559.0999756,0.3600352407,
559,0.3795649409,
558.9000244,0.3846891522,
558.7999878,0.3910701573,
558.7000122,0.3096271455,
558.5999756,0.2824445963,
558.5,0.2828342021,
558.4000244,0.2925457656,
558.2999878,0.2989856303,
558.2000122,0.2996365726,
558.0999756,0.315785259,
558,0.3159996867,
557.9000244,0.3224761188,
557.7999878,0.3314572275,
557.7000122,0.3421519399,
557.5999756,0.3468033671,
557.5,0.3618781567,
557.4000244,0.3736667633,
557.2999878,0.3842855394,
557.2000122,0.356205821,
557.0999756,0.3079027534,
557,0.3154060841,
556.9000244,0.3227612972,
556.7999878,0.3353763521,
556.7000122,0.340836972,
556.5999756,0.3587822616,
556.5,0.3614094853,
556.4000244,0.3741594255,
556.2999878,0.3896923065,
556.2000122,0.3997268677,
556.0999756,0.4139930606,
556,0.4069357514,
555.9000244,0.315348357,
555.7999878,0.2927964926,
555.7000122,0.2948766351,
555.5999756,0.2965194285,
555.5,0.3075271249,
555.4000244,0.3130200505,
555.2999878,0.3197684586,
555.2000122,0.334053725,
555.0999756,0.3337516487,
555,0.3459907174,
554.9000244,0.3529360592,
554.7999878,0.3707123995,
554.7000122,0.3719197214,
554.5999756,0.345859319,
554.5,0.3188628852,
554.4000244,0.3197666109,
554.2999878,0.3246493638,
554.2000122,0.3404091001,
554.0999756,0.3470656574,
554,0.3604200482,
553.9000244,0.3773083687,
553.7999878,0.3811196983,
553.7000122,0.3920183182,
553.5999756,0.4061672091,
553.5,0.4211315513,
553.4000244,0.4331916273,
553.2999878,0.4214639068,
553.2000122,0.315941453,
553.0999756,0.2965708673,
553,0.3024603426,
552.9000244,0.3113027811,
552.7999878,0.3200012445,
552.7000122,0.3312724531,
552.5999756,0.3369411528,
552.5,0.3480517864,
552.4000244,0.3542611301,
552.2999878,0.3641316891,
552.2000122,0.3762568533,
552.0999756,0.3387162685,
552,0.3270545304,
551.9000244,0.329823494,
551.7999878,0.3425146043,
551.7000122,0.3512723446,
551.5999756,0.3617057502,
551.5,0.3674356043,
551.4000244,0.3769741356,
551.2999878,0.3834815025,
551.2000122,0.395950228,
551.0999756,0.4108598828,
551,0.4221145809,
550.9000244,0.4337345362,
550.7999878,0.4541365802,
550.7000122,0.4310543835,
550.5999756,0.3241791725,
550.5,0.3048276007,
550.4000244,0.3145881295,
550.2999878,0.3254728913,
550.2000122,0.3309653401,
550.0999756,0.3407989442,
550,0.3478072882,
549.9000244,0.3566163778,
549.7999878,0.3644165099,
549.7000122,0.343711406,
549.5999756,0.3285473883,
549.5,0.3424093425,
549.4000244,0.3419545591,
549.2999878,0.3508793414,
549.2000122,0.3572411537,
549.0999756,0.372995764,
549,0.3804336488,
548.9000244,0.3904286027,
548.7999878,0.3982055783,
548.7000122,0.4088985622,
548.5999756,0.427033186,
548.5,0.44126755,
548.4000244,0.4557916224,
548.2999878,0.4676935077,
548.2000122,0.4574696422,
548.0999756,0.335036993,
548,0.3140777946,
547.9000244,0.3188366592,
547.7999878,0.3282148838,
547.7000122,0.3369084895,
547.5999756,0.3448701501,
547.5,0.3568334281,
547.4000244,0.343883574,
547.2999878,0.330375284,
547.2000122,0.337800771,
547.0999756,0.3373759687,
547,0.3482030928,
546.9000244,0.3536153138,
546.7999878,0.3626490533,
546.7000122,0.3770676553,
546.5999756,0.3870817721,
546.5,0.4000693858,
546.4000244,0.409014374,
546.2999878,0.417922467,
546.2000122,0.4305280447,
546.0999756,0.4470911324,
546,0.459649533,
545.9000244,0.4687698483,
545.7999878,0.4840411842,
545.7000122,0.3859740496,
545.5999756,0.3235238492,
545.5,0.3247686028,
545.4000244,0.3317554593,
545.2999878,0.3401324451,
545.2000122,0.3459498882,
545.0999756,0.3306978047,
545,0.3240605891,
544.9000244,0.3320632875,
544.7999878,0.3387460709,
544.7000122,0.3451193869,
544.5999756,0.3577181101,
544.5,0.3671780527,
544.4000244,0.3733035624,
544.2999878,0.3857353032,
544.2000122,0.4015165269,
544.0999756,0.4103294015,
544,0.4243116975,
543.9000244,0.4328117073,
543.7999878,0.444232583,
543.7000122,0.4608486295,
543.5999756,0.4770623744,
543.5,0.4902975261,
543.4000244,0.4760616422,
543.2999878,0.349003762,
543.2000122,0.3279219568,
543.0999756,0.3286021054,
543,0.3228905499,
542.9000244,0.317692697,
542.7999878,0.3227747977,
542.7000122,0.3294407129,
542.5999756,0.33293733,
542.5,0.3406070173,
542.4000244,0.3548182249,
542.2999878,0.3644083738,
542.2000122,0.3744425476,
542.0999756,0.3851373494,
542,0.3944022059,
541.9000244,0.4024008811,
541.7999878,0.4142773449,
541.7000122,0.4293766022,
541.5999756,0.4443607628,
541.5,0.4580676556,
541.4000244,0.4684512019,
541.2999878,0.4830054045,
541.2000122,0.4944995344,
541.0999756,0.4600638747,
541,0.3348420858,
540.9000244,0.3160217404,
540.7999878,0.3113016486,
540.7000122,0.3165023029,
540.5999756,0.3228107393,
540.5,0.3303722143,
540.4000244,0.3380494416,
540.2999878,0.3454371393,
540.2000122,0.3527327776,
540.0999756,0.3614279032,
540,0.3778933287,
539.9000244,0.3848340809,
539.7999878,0.3895482719,
539.7000122,0.4110459685,
539.5999756,0.4204688668,
539.5,0.4293398559,
539.4000244,0.441957593,
539.2999878,0.4436521232,
539.2000122,0.4591913223,
539.0999756,0.4696681499,
539,0.4838005304,
538.9000244,0.4580828846,
538.7999878,0.3286840916,
538.7000122,0.3131868839,
538.5999756,0.3114369512,
538.5,0.3185508549,
538.4000244,0.3270160258,
538.2999878,0.3342636228,
538.2000122,0.3421289921,
538.0999756,0.3469643593,
538,0.3631231189,
537.9000244,0.3676550388,
537.7999878,0.3854015172,
537.7000122,0.3940334618,
537.5999756,0.3916559219,
537.5,0.3990567923,
537.4000244,0.4112306237,
537.2999878,0.4169214666,
537.2000122,0.4321127534,
537.0999756,0.4437594116,
537,0.4545224309,
536.9000244,0.4713395834,
536.7999878,0.476488322,
536.7000122,0.3705658913,
536.5999756,0.3109300435,
536.5,0.3143667579,
536.4000244,0.3205662966,
536.2999878,0.3344688416,
536.2000122,0.3343695998,
536.0999756,0.3451019824,
536,0.3555929959,
535.9000244,0.3610589802,
535.7999878,0.3526382446,
535.7000122,0.3737577498,
535.5999756,0.3804064095,
535.5,0.3758282959,
535.4000244,0.3946149349,
535.2999878,0.4079612195,
535.2000122,0.4204247594,
535.0999756,0.4429195821,
535,0.4448866546,
534.9000244,0.4612413943,
534.7999878,0.4739466906,
534.7000122,0.4277866781,
534.5999756,0.3272465765,
534.5,0.3232097924,
534.4000244,0.3258829117,
534.2999878,0.3333110511,
534.2000122,0.3337262869,
534.0999756,0.3359850645,
534,0.3433606625,
533.9000244,0.3536621928,
533.7999878,0.3622117341,
533.7000122,0.3772450686,
533.5999756,0.3823580444,
533.5,0.3851164579,
533.4000244,0.3943190575,
533.2999878,0.4120622575,
533.2000122,0.4292998612,
533.0999756,0.4402827322,
533,0.4557732344,
532.9000244,0.4664371908,
532.7999878,0.4798704982,
532.7000122,0.3817726374,
532.5999756,0.3178772628,
532.5,0.322979331,
532.4000244,0.3307554722,
532.2999878,0.3349189162,
532.2000122,0.3410491645,
532.0999756,0.3513593078,
532,0.3556783795,
531.9000244,0.3674461544,
531.7999878,0.3767009377,
531.7000122,0.3892603219,
531.5999756,0.3916735649,
531.5,0.3957003355,
531.4000244,0.4140558243,
531.2999878,0.4336014688,
531.2000122,0.4369371831,
531.0999756,0.4488546848,
531,0.4649301767,
530.9000244,0.4667673707,
530.7999878,0.3777842522,
530.7000122,0.3246803284,
530.5999756,0.3370551169,
530.5,0.3379304111,
530.4000244,0.3436429501,
530.2999878,0.3527874351,
530.2000122,0.3593963087,
530.0999756,0.366364181,
530,0.3772381842,
529.9000244,0.3907428682,
529.7999878,0.3848564625,
529.7000122,0.4026895165,
529.5999756,0.407620877,
529.5,0.4201219082,
529.4000244,0.4266326427,
529.2999878,0.4447201788,
529.2000122,0.462097019,
529.0999756,0.4693301618,
529,0.4131528735,
528.9000244,0.3373564184,
528.7999878,0.3348637521,
528.7000122,0.3491290212,
528.5999756,0.3474107683,
528.5,0.3612482846,
528.4000244,0.3588154018,
528.2999878,0.3661359251,
528.2000122,0.3840980232,
528.0999756,0.3853250146,
528,0.3930380344,
527.9000244,0.4043988883,
527.7999878,0.4182625413,
527.7000122,0.4248358607,
527.5999756,0.4383125603,
527.5,0.4497245848,
527.4000244,0.4602680504,
527.2999878,0.4522371888,
527.2000122,0.358373791,
527.0999756,0.3325511813,
527,0.3435117006,
526.9000244,0.3497609794,
526.7999878,0.3533696532,
526.7000122,0.3641792238,
526.5999756,0.3703266978,
526.5,0.3796683252,
526.4000244,0.3877420723,
526.2999878,0.3916317821,
526.2000122,0.4074526131,
526.0999756,0.407076776,
526,0.4243586063,
525.9000244,0.4344542325,
525.7999878,0.4462828636,
525.7000122,0.4536533356,
525.5999756,0.4314330816,
525.5,0.3493803144,
525.4000244,0.3392000794,
525.2999878,0.3466476798,
525.2000122,0.3519920409,
525.0999756,0.3589011729,
525,0.3642170727,
524.9000244,0.3795143962,
524.7999878,0.3790371716,
524.7000122,0.3931340873,
524.5999756,0.3956927359,
524.5,0.4047682881,
524.4000244,0.4145484865,
524.2999878,0.43004179,
524.2000122,0.4360843003,
524.0999756,0.4498801827,
524,0.4451762438,
523.9000244,0.3600077033,
523.7999878,0.3366731703,
523.7000122,0.340839535,
523.5999756,0.3439537585,
523.5,0.3557840586,
523.4000244,0.3678617775,
523.2999878,0.3680035472,
523.2000122,0.3817649782,
523.0999756,0.3887429535,
523,0.4002084732,
522.9000244,0.4049656689,
522.7999878,0.418433696,
522.7000122,0.4235549867,
522.5999756,0.4346369803,
522.5,0.4350049794,
522.4000244,0.4001293182,
522.2999878,0.3355357945,
522.2000122,0.343350172,
522.0999756,0.3518553376,
522,0.3564727306,
521.9000244,0.3668092191,
521.7999878,0.371999234,
521.7000122,0.3811241984,
521.5999756,0.3831314147,
521.5,0.3927667439,
521.4000244,0.4018605053,
521.2999878,0.4096367657,
521.2000122,0.4186639488,
521.0999756,0.4223834574,
521,0.4338289797,
520.9000244,0.3746891916,
520.7999878,0.3419139683,
520.7000122,0.3413803279,
520.5999756,0.3513651788,
520.5,0.3557033539,
520.4000244,0.3658083081,
520.2999878,0.3724434972,
520.2000122,0.379732877,
520.0999756,0.3821412027,
520,0.3893921673,
519.9000244,0.3940215409,
519.7999878,0.4040919542,
519.7000122,0.4158565104,
519.5999756,0.4252154231,
519.5,0.402266413,
519.4000244,0.3390966654,
519.2999878,0.3451867998,
519.2000122,0.3451598287,
519.0999756,0.3598855436,
519,0.3593838811,
518.9000244,0.3627566099,
518.7999878,0.3703864515,
518.7000122,0.3816743493,
518.5999756,0.3842957616,
518.5,0.3990766704,
518.4000244,0.4060600996,
518.2999878,0.4106517434,
518.2000122,0.410223186,
518.0999756,0.3620499372,
518,0.3412799537,
517.9000244,0.3473165035,
517.7999878,0.3441987634,
517.7000122,0.356988132,
517.5999756,0.3571543992,
517.5,0.3713859618,
517.4000244,0.3746603429,
517.2999878,0.3821932375,
517.2000122,0.3917625248,
517.0999756,0.4012234211,
517,0.4039788842,
516.9000244,0.4087561071,
516.7999878,0.3508487642,
516.7000122,0.3319198191,
516.5999756,0.3493594825,
516.5,0.3498904109,
516.4000244,0.3543982506,
516.2999878,0.3664727211,
516.2000122,0.3637324572,
516.0999756,0.3756164014,
516,0.3825045526,
515.9000244,0.3888131678,
515.7999878,0.3910251856,
515.7000122,0.3980636895,
515.5999756,0.3712225556,
515.5,0.3366431892,
515.4000244,0.3392822742,
515.2999878,0.3482600749,
515.2000122,0.3508200943,
515.0999756,0.3621503413,
515,0.3650996685,
514.9000244,0.3681239486,
514.7999878,0.3761534989,
514.7000122,0.3787868023,
514.5999756,0.3932772279,
514.5,0.3958466053,
514.4000244,0.3558720648,
514.2999878,0.3408665657,
514.2000122,0.3484320641,
514.0999756,0.3488924503,
514,0.3515826166,
513.9000244,0.3589847982,
513.7999878,0.3650579751,
513.7000122,0.3745646179,
513.5999756,0.3806845844,
513.5,0.3844029009,
513.4000244,0.3965577483,
513.2999878,0.360163331,
513.2000122,0.3374705613,
513.0999756,0.3389168978,
513,0.3468439877,
512.9000244,0.351705879,
512.7999878,0.3584872484,
512.7000122,0.3655892611,
512.5999756,0.3682903647,
512.5,0.3752611876,
512.4000244,0.3781324327,
512.2999878,0.3767896295,
512.2000122,0.3433349729,
512.0999756,0.3428907096,
512,0.3441815972,
511.8999939,0.3534246981,
511.7999878,0.3552608192,
511.7000122,0.3573732078,
511.6000061,0.3631435037,
511.5,0.3684778512,
511.3999939,0.3748432398,
511.2999878,0.3773429394,
511.2000122,0.3512452841,
511.1000061,0.3399268091,
511,0.3401882946,
510.8999939,0.3445786238,
510.7999878,0.3540918827,
510.7000122,0.3579638004,
510.6000061,0.3640678227,
510.5,0.3695353568,
510.3999939,0.3706374168,
510.2999878,0.3578959405,
510.2000122,0.3364583552,
510.1000061,0.3392062783,
510,0.3454246223,
509.8999939,0.3494175971,
509.7999878,0.349579215,
509.7000122,0.3544353247,
509.6000061,0.3618364334,
509.5,0.3667685688,
509.3999939,0.3578003049,
509.2999878,0.3355835974,
509.2000122,0.3358893096,
509.1000061,0.3407792151,
509,0.3449225426,
508.8999939,0.3516541421,
508.7999878,0.354737401,
508.7000122,0.3563044071,
508.6000061,0.3616088629,
508.5,0.3398201466,
508.3999939,0.3332246244,
508.2999878,0.3379652202,
508.2000122,0.3399444222,
508.1000061,0.3450844288,
508,0.349843502,
507.8999939,0.3538768888,
507.7999878,0.3556202054,
507.7000122,0.3372189701,
507.6000061,0.3326773643,
507.5,0.3368516564,
507.3999939,0.3385497332,
507.2999878,0.3429138958,
507.2000122,0.3481225073,
507.1000061,0.3513004482,
507,0.3464933634,
506.8999939,0.3311759233,
506.7999878,0.3343212605,
506.7000122,0.3361185789,
506.6000061,0.3392262757,
506.5,0.343516171,
506.3999939,0.3463418484,
506.2999878,0.3442053497,
506.2000122,0.3300042748,
506.1000061,0.3298397958,
506,0.3327938914,
505.8999939,0.3362141252,
505.7999878,0.3395478129,
505.7000122,0.3429752588,
505.6000061,0.3375888467,
505.5,0.3267628849,
505.3999939,0.330090344,
505.2999878,0.3324017823,
505.2000122,0.3352163136,
505.1000061,0.3395718634,
505,0.337559104,
504.8999939,0.3254357278,
504.7999878,0.3262078762,
504.7000122,0.3297706246,
504.6000061,0.3323034346,
504.5,0.3357619345,
504.3999939,0.3316185176,
504.2999878,0.3238892853,
504.2000122,0.3253310323,
504.1000061,0.3284296691,
504,0.3314415216,
503.8999939,0.3327097595,
503.7999878,0.3235926032,
503.7000122,0.3219618201,
503.6000061,0.3249649405,
503.5,0.3273904026,
503.3999939,0.3295036256,
503.2999878,0.3225029707,
503.2000122,0.3202707767,
503.1000061,0.3226585388,
503,0.3252946734,
502.8999939,0.3252963424,
502.7999878,0.3190562129,
502.7000122,0.319496125,
502.6000061,0.322090596,
502.5,0.3240789473,
502.3999939,0.3209260702,
502.2999878,0.3161328435,
502.2000122,0.3196419179,
502.1000061,0.3215446472,
502,0.3182117045,
501.8999939,0.3159475625,
501.7999878,0.3175552487,
501.7000122,0.3189645112,
501.6000061,0.3150877953,
501.5,0.3152395487,
501.3999939,0.3164731264,
501.2999878,0.3161023557,
501.2000122,0.3140814602,
501.1000061,0.315354228,
501,0.3146713376,
500.8999939,0.3121710122,
500.7999878,0.3133502603,
500.7000122,0.3131065369,
500.6000061,0.310785979,
500.5,0.3125822246,
500.3999939,0.3104853928,
500.2999878,0.3107194901,
500.2000122,0.3100766838,
500.1000061,0.3101756275,
500,0.3097058535,
499.8999939,0.3083668351,
499.7999878,0.308346808,
499.7000122,0.3079598844,
499.6000061,0.3066969812,
499.5,0.3067263663,
499.3999939,0.305971235,
499.2999878,0.305701375,
499.2000122,0.305028677,
499.1000061,0.304839164,
499,0.3041449785,
498.8999939,0.3041065335,
498.7999878,0.3032306433,
498.7000122,0.3033452928,
498.6000061,0.3028668761,
498.5,0.3022667468,
498.3999939,0.301889807,
498.2999878,0.3011815846,
498.2000122,0.3006772995,
498.1000061,0.3008667827,
498,0.3002302945,
497.8999939,0.3003461659,
497.7999878,0.2993060648,
497.7000122,0.2990909219,
497.6000061,0.2978688776,
497.5,0.2974691689,
497.3999939,0.2972585857,
497.2999878,0.2963153422,
497.2000122,0.2957409918,
497.1000061,0.2951961458,
497,0.2949899733,
496.8999939,0.2942136228,
496.7999878,0.2934729159,
496.7000122,0.2927612066,
496.6000061,0.2925899625,
496.5,0.2925562263,
496.3999939,0.292224735,
496.2999878,0.2910787463,
496.2000122,0.290324688,
496.1000061,0.2908646166,
496,0.2898471057,
495.8999939,0.2901147902,
495.7999878,0.2883280516,
495.7000122,0.2886344194,
495.6000061,0.2875832617,
495.5,0.2878350914,
495.3999939,0.2875191569,
495.2999878,0.2871627808,
495.2000122,0.2863191068,
495.1000061,0.2852057219,
495,0.2846576273,
494.8999939,0.2844713032,
494.7999878,0.2842122316,
494.7000122,0.2841034234,
494.6000061,0.2836576104,
494.5,0.2831175923,
494.3999939,0.2825560272,
494.2999878,0.281848371,
494.2000122,0.2813774645,
494.1000061,0.2800298929,
494,0.2804387212,
493.8999939,0.2795960307,
493.7999878,0.2791676521,
493.7000122,0.2790758014,
493.6000061,0.2786028683,
493.5,0.2776832879,
493.3999939,0.277199477,
493.2999878,0.2770595253,
493.2000122,0.2766603231,
493.1000061,0.2757721245,
493,0.2747873664,
492.8999939,0.2750229239,
492.7999878,0.2747024596,
492.7000122,0.273277998,
492.6000061,0.2727096081,
492.5,0.2720615864,
492.3999939,0.2724682987,
492.2999878,0.2727904022,
492.2000122,0.2708176076,
492.1000061,0.2710232437,
492,0.2710370719,
491.8999939,0.2705984414,
491.7999878,0.2699837387,
491.7000122,0.268638283,
491.6000061,0.2688085735,
491.5,0.2686851323,
491.3999939,0.2682334483,
491.2999878,0.2675794363,
491.2000122,0.2670379579,
491.1000061,0.2670478821,
491,0.266425699,
490.8999939,0.2661111951,
490.7999878,0.2649419606,
490.7000122,0.2651463151,
490.6000061,0.2643970251,
490.5,0.2640576065,
490.3999939,0.2630464137,
490.2999878,0.2624635398,
490.2000122,0.2628330588,
490.1000061,0.2615579069,
490,0.261703819,
489.8999939,0.2610813975,
489.7999878,0.2602885962,
489.7000122,0.2602199912,
489.6000061,0.2594469488,
489.5,0.2585864365,
489.3999939,0.2581008375,
489.2999878,0.2581596673,
489.2000122,0.258181572,
489.1000061,0.257748723,
489,0.2569335103,
488.8999939,0.2562958002,
488.7999878,0.2557735145,
488.7000122,0.2550923824,
488.6000061,0.2547011375,
488.5,0.25463745,
488.3999939,0.2548522055,
488.2999878,0.2529654205,
488.2000122,0.2531400621,
488.1000061,0.252369374,
488,0.2517494261,
487.8999939,0.2513384223,
487.7999878,0.2509817779,
487.7000122,0.250934571,
487.6000061,0.2503909469,
487.5,0.249636218,
487.3999939,0.2488679737,
487.2999878,0.2494754046,
487.2000122,0.2485204488,
487.1000061,0.2481317818,
487,0.2475705296,
486.8999939,0.2473227233,
486.7999878,0.2465927601,
486.7000122,0.2467178404,
486.6000061,0.245446384,
486.5,0.2454880774,
486.3999939,0.244861111,
486.2999878,0.244629994,
486.2000122,0.2432106137,
486.1000061,0.2430909425,
486,0.2429284602,
485.8999939,0.2421426773,
485.7999878,0.2423467934,
485.7000122,0.2413944304,
485.6000061,0.2413866222,
485.5,0.2407215685,
485.3999939,0.24060601,
485.2999878,0.2402106225,
485.2000122,0.2391423136,
485.1000061,0.2388231009,
485,0.2387752682,
484.8999939,0.2377037704,
484.7999878,0.2383920401,
484.7000122,0.2378434986,
484.6000061,0.2368243039,
484.5,0.2366179079,
484.3999939,0.2359811962,
484.2999878,0.2357909232,
484.2000122,0.2346126437,
484.1000061,0.2341343462,
484,0.2341474444,
483.8999939,0.2336384952,
483.7999878,0.2329940498,
483.7000122,0.232367754,
483.6000061,0.232468009,
483.5,0.2316262126,
483.3999939,0.2318370044,
483.2999878,0.2310712039,
483.2000122,0.2310081869,
483.1000061,0.2304279059,
483,0.2299977243,
482.8999939,0.2294392586,
482.7999878,0.2295217663,
482.7000122,0.2289036512,
482.6000061,0.2278757095,
482.5,0.2275792956,
482.3999939,0.2278793454,
482.2999878,0.2274753153,
482.2000122,0.2265986353,
482.1000061,0.2264520526,
482,0.2258494943,
481.8999939,0.2258506119,
481.7999878,0.2252402753,
481.7000122,0.2249128073,
481.6000061,0.2239170223,
481.5,0.2241339087,
481.3999939,0.2237524986,
481.2999878,0.2225144207,
481.2000122,0.2230258137,
481.1000061,0.222303316,
481,0.2210667282,
480.8999939,0.2207749337,
480.7999878,0.2206375301,
480.7000122,0.2196143568,
480.6000061,0.2194457501,
480.5,0.2186798453,
480.3999939,0.2188585997,
480.2999878,0.2183973044,
480.2000122,0.2182277143,
480.1000061,0.2175424546,
480,0.2172597498,
479.8999939,0.2163923532,
479.7999878,0.2164856195,
479.7000122,0.2151948065,
479.6000061,0.2163902223,
479.5,0.2156398743,
479.3999939,0.2151896656,
479.2999878,0.2146517783,
479.2000122,0.213825658,
479.1000061,0.2142670751,
479,0.2136173695,
478.8999939,0.2132427543,
478.7999878,0.2129502743,
478.7000122,0.2127877921,
478.6000061,0.2126539499,
478.5,0.2110982835,
478.3999939,0.2111069858,
478.2999878,0.2106785178,
478.2000122,0.2110766023,
478.1000061,0.2097880691,
478,0.2101460546,
477.8999939,0.2097743005,
477.7999878,0.2091090232,
477.7000122,0.209194079,
477.6000061,0.2082609087,
477.5,0.2080120593,
477.3999939,0.2074760199,
477.2999878,0.2075502276,
477.2000122,0.2072241604,
477.1000061,0.2065176666,
477,0.2063353807,
476.8999939,0.2053330094,
476.7999878,0.2054231912,
476.7000122,0.2049770504,
476.6000061,0.204273954,
476.5,0.2042637318,
476.3999939,0.2039192319,
476.2999878,0.2027504742,
476.2000122,0.2032508403,
476.1000061,0.2021303773,
476,0.2021783739,
475.8999939,0.2014803588,
475.7999878,0.2014831156,
475.7000122,0.2008494437,
475.6000061,0.2010638267,
475.5,0.200458169,
475.3999939,0.2003254443,
475.2999878,0.1998155266,
475.2000122,0.1995172948,
475.1000061,0.1989964843,
475,0.1992720962,
474.8999939,0.198586911,
474.7999878,0.1984528005,
474.7000122,0.1974592358,
474.6000061,0.1977594942,
474.5,0.1970700622,
474.3999939,0.1966607869,
474.2999878,0.1963450164,
474.2000122,0.1959354579,
474.1000061,0.1958237737,
474,0.1951200366,
473.8999939,0.1945998669,
473.7999878,0.1946163177,
473.7000122,0.1940631419,
473.6000061,0.1940889657,
473.5,0.1935496926,
473.3999939,0.1933337301,
473.2999878,0.1934903562,
473.2000122,0.1919347793,
473.1000061,0.1921335608,
473,0.1919072419,
472.8999939,0.1912472099,
472.7999878,0.1915159971,
472.7000122,0.1910199225,
472.6000061,0.190808028,
472.5,0.1898603141,
472.3999939,0.189852342,
472.2999878,0.1901902258,
472.2000122,0.1887848675,
472.1000061,0.1895057559,
472,0.1882218719,
471.8999939,0.1883246154,
471.7999878,0.1879102588,
471.7000122,0.187548995,
471.6000061,0.1873670369,
471.5,0.1871667951,
471.3999939,0.1871276349,
471.2999878,0.187462002,
471.2000122,0.1858862191,
471.1000061,0.1869270355,
471,0.1862472147,
470.8999939,0.1854453236,
470.7999878,0.1848164648,
470.7000122,0.1853729337,
470.6000061,0.1853215992,
470.5,0.1849589497,
470.3999939,0.1832994968,
470.2999878,0.1839340329,
470.2000122,0.1841741651,
470.1000061,0.1829710752,
470,0.182777077,
469.8999939,0.1823047847,
469.7999878,0.1819581091,
469.7000122,0.182323575,
469.6000061,0.1811081916,
469.5,0.1816099733,
469.3999939,0.1810916662,
469.2999878,0.1804104745,
469.2000122,0.1806000471,
469.1000061,0.180022046,
469,0.179515332,
468.8999939,0.1795990467,
468.7999878,0.1785429418,
468.7000122,0.1786738485,
468.6000061,0.1785041243,
468.5,0.1781035066,
468.3999939,0.1774980426,
468.2999878,0.1774731576,
468.2000122,0.1769333631,
468.1000061,0.1768795252,
468,0.1768104434,
467.8999939,0.1762673706,
467.7999878,0.1762545109,
467.7000122,0.1750610173,
467.6000061,0.1750634164,
467.5,0.1745995879,
467.3999939,0.1743198782,
467.2999878,0.1745602787,
467.2000122,0.1739255786,
467.1000061,0.1735239029,
467,0.1741597354,
466.8999939,0.1730758697,
466.7999878,0.1729042828,
466.7000122,0.1731971651,
466.6000061,0.1728121191,
466.5,0.1729287952,
466.3999939,0.1718625426,
466.2999878,0.1720293462,
466.2000122,0.1710471511,
466.1000061,0.1714098752,
466,0.171719715,
465.8999939,0.1708816737,
465.7999878,0.1703953892,
465.7000122,0.1702402085,
465.6000061,0.1708342582,
465.5,0.1704255939,
465.3999939,0.1699671149,
465.2999878,0.1697426736,
465.2000122,0.1695120335,
465.1000061,0.1697360873,
465,0.1691762507,
464.8999939,0.1688590199,
464.7999878,0.1690515727,
464.7000122,0.1685177982,
464.6000061,0.1681121737,
464.5,0.1675527245,
464.3999939,0.1681012064,
464.2999878,0.1676635295,
464.2000122,0.1681156904,
464.1000061,0.167131573,
464,0.1668762267,
463.8999939,0.1665418744,
463.7999878,0.1662150323,
463.7000122,0.1659029871,
463.6000061,0.1652980298,
463.5,0.1652483493,
463.3999939,0.1653440893,
463.2999878,0.1649460495,
463.2000122,0.1646904051,
463.1000061,0.164539367,
463,0.1641397029,
462.8999939,0.1640578955,
462.7999878,0.1635103375,
462.7000122,0.1636226475,
462.6000061,0.1637024879,
462.5,0.1631717831,
462.3999939,0.1632808447,
462.2999878,0.1636471748,
462.2000122,0.1628659517,
462.1000061,0.162507683,
462,0.1629785448,
461.8999939,0.1618641168,
461.7999878,0.1620062143,
461.7000122,0.1622214019,
461.6000061,0.1612671167,
461.5,0.160922125,
461.3999939,0.1608373225,
461.2999878,0.1613195091,
461.2000122,0.1600482166,
461.1000061,0.1601325423,
461,0.1601427943,
460.8999939,0.1598870456,
460.7999878,0.1587478518,
460.7000122,0.1590405256,
460.6000061,0.1594649255,
460.5,0.1584710628,
460.3999939,0.1586388052,
460.2999878,0.1586038172,
460.2000122,0.1589182019,
460.1000061,0.1582240164,
460,0.1590521038,
459.8999939,0.1579782963,
459.7999878,0.1577007771,
459.7000122,0.1579612643,
459.6000061,0.1576823443,
459.5,0.157353729,
459.3999939,0.1571399868,
459.2999878,0.1573200077,
459.2000122,0.156465739,
459.1000061,0.1559881717,
459,0.1561077088,
458.8999939,0.156022504,
458.7999878,0.1558189243,
458.7000122,0.1561279893,
458.6000061,0.1547418684,
458.5,0.155522421,
458.3999939,0.1549985707,
458.2999878,0.1550697833,
458.2000122,0.1546696126,
458.1000061,0.1547134519,
458,0.1546281427,
457.8999939,0.1539484113,
457.7999878,0.1546978801,
457.7000122,0.154146865,
457.6000061,0.1537415683,
457.5,0.1538964957,
457.3999939,0.153196767,
457.2999878,0.1534109861,
457.2000122,0.1527287364,
457.1000061,0.152919203,
457,0.1519030631,
456.8999939,0.1522119939,
456.7999878,0.1527704298,
456.7000122,0.1515313387,
456.6000061,0.1518129557,
456.5,0.1514922976,
456.3999939,0.1513046324,
456.2999878,0.1513352543,
456.2000122,0.1510943472,
456.1000061,0.1512037814,
456,0.1513062418,
455.8999939,0.1509467214,
455.7999878,0.1500898302,
455.7000122,0.1502490193,
455.6000061,0.1503107101,
455.5,0.1495334804,
455.3999939,0.1495915204,
455.2999878,0.1497127116,
455.2000122,0.1489745528,
455.1000061,0.1485859454,
455,0.1492299438,
454.8999939,0.1489057541,
454.7999878,0.1490569264,
454.7000122,0.1486266553,
454.6000061,0.1487935483,
454.5,0.1484472901,
454.3999939,0.1488949955,
454.2999878,0.1488591582,
454.2000122,0.1483892053,
454.1000061,0.1483925283,
454,0.1490055323,
453.8999939,0.1479180008,
453.7999878,0.1478789896,
453.7000122,0.1479095519,
453.6000061,0.1479384899,
453.5,0.1475891173,
453.3999939,0.1474085748,
453.2999878,0.1473271996,
453.2000122,0.1472064257,
453.1000061,0.147311002,
453,0.1465183347,
452.8999939,0.1464835852,
452.7999878,0.1472904682,
452.7000122,0.1464570612,
452.6000061,0.1466370672,
452.5,0.1465532929,
452.3999939,0.1462363601,
452.2999878,0.1466456354,
452.2000122,0.1465349346,
452.1000061,0.1455555856,
452,0.1462665647,
451.8999939,0.1455909908,
451.7999878,0.1453978568,
451.7000122,0.1450094283,
451.6000061,0.1453988254,
451.5,0.1449920386,
451.3999939,0.1447938234,
451.2999878,0.1448732764,
451.2000122,0.1445046663,
451.1000061,0.1446172893,
451,0.1439079046,
450.8999939,0.1437684894,
450.7999878,0.144591406,
450.7000122,0.143668443,
450.6000061,0.1442192048,
450.5,0.1437590122,
450.3999939,0.1436586529,
450.2999878,0.1436839849,
450.2000122,0.1434628367,
450.1000061,0.1434678882,
450,0.1430695206,

sample1,
sample1
Collection Time: 12/13/22 3:00:07 PM
Operator Name  :
Scan Version 6.2.0.1588
Parameter List :
Instrument  Cary 5000
Instrument Version  3.00
Method Log     :
Method Name    :
Date/Time stamp: 12/13/22 2:57:03 PM
Method Modifications:
ConcentrationReportSelected Changed: 12/13/22 2:57:03 PM, Old:Choice 0, New:Choice 1
ConcentrationReportSelected Changed: 12/13/22 2:57:03 PM, Old:ON, New:Choice 0
MCAReportSelected Changed: 12/13/22 2:57:03 PM, Old:Choice 0, New:Choice 1
MCAReportSelected Changed: 12/13/22 2:57:03 PM, Old:ON, New:Choice 0
X Start nm Changed: 12/13/22 2:58:04 PM, Old:800.000, New:650.000
X Stop nm Changed: 12/13/22 2:58:04 PM, Old:200.000, New:450.000
UVVIS Scan Rate nm Changed: 12/13/22 2:58:04 PM, Old:  602.007, New:  600.000
NIR Scan Rate nm Changed: 12/13/22 2:58:04 PM, Old:    0.004, New:   12.000
SBW Changed: 12/13/22 2:58:04 PM, Old:2.000, New:0.100
NIR slit width Changed: 12/13/22 2:58:04 PM, Old:4.000, New:0.100
Common Slit Width Changed: 12/13/22 2:58:04 PM, Old:2.000, New:0.100
Baseline Correction Changed: 12/13/22 2:58:04 PM, Old:0, New:1
Sipper Type Changed: 12/13/22 2:58:04 PM, Old:Internal RSA, New:External sipper
Common Interval nm Changed: 12/13/22 2:59:11 PM, Old:    1.000, New:    0.100
End Method Modifications
<Current Wavelength> , 450.000
<SBW (nm)> , 0.10
<Energy> , 346.74
<Slit Height> , Full

